# Matter power spectrum P(k) at redshift z=0
# for k=0.000516752 to 1.34824 h/Mpc,
# number of wavenumbers equal to 759
#    1:k (h/Mpc)              2:P (Mpc/h)^3        
       5.167520445075e-04       1.567368465611e+03 
       5.478166285085e-04       1.883481622636e+03 
       5.807413950731e-04       2.216906674334e+03 
       6.156739722645e-04       2.566863995756e+03 
       6.527672402720e-04       2.932891634412e+03 
       6.921775869584e-04       3.314786596590e+03 
       7.340626311185e-04       3.712543249297e+03 
       7.785783965784e-04       4.126283871509e+03 
       8.258759628926e-04       4.556163168313e+03 
       8.760976737698e-04       5.002370617937e+03 
       9.293730484873e-04       5.465052212007e+03 
       9.858146067559e-04       5.944267392672e+03 
       1.045513872713e-03       6.439961780930e+03 
       1.108537856186e-03       6.951935058405e+03 
       1.174926307521e-03       7.479818663700e+03 
       1.244689999466e-03       8.023068731653e+03 
       1.317810207067e-03       8.580962311461e+03 
       1.394239444853e-03       9.152593782907e+03 
       1.473903397580e-03       9.736918788780e+03 
       1.556703867777e-03       1.033278461889e+04 
       1.642522478881e-03       1.093892845127e+04 
       1.731224828641e-03       1.155402025009e+04 
       1.822664785917e-03       1.217669684625e+04 
       1.916688658561e-03       1.280558894523e+04 
       2.013139018951e-03       1.343934867921e+04 
       2.111858043100e-03       1.407667018838e+04 
       2.212690287289e-03       1.471630788062e+04 
       2.315484884314e-03       1.535708817772e+04 
       2.420097185517e-03       1.599791720846e+04 
       2.526389903890e-03       1.663778604873e+04 
       2.634233829326e-03       1.727577160044e+04 
       2.743508192318e-03       1.791103644709e+04 
       2.854100750179e-03       1.854282740918e+04 
       2.965907663000e-03       1.917046703978e+04 
       3.078833217383e-03       1.979335731491e+04 
       3.192789446026e-03       2.041096184915e+04 
       3.307695681683e-03       2.102281340937e+04 
       3.423478075378e-03       2.162849931819e+04 
       3.540069101325e-03       2.222766434961e+04 
       3.657407064901e-03       2.281999547115e+04 
       3.775435625108e-03       2.340522902377e+04 
       3.894103339109e-03       2.398313463794e+04 
       4.013363233526e-03       2.455352196279e+04 
       4.133172404991e-03       2.511622581506e+04 
       4.253491650890e-03       2.567111482468e+04 
       4.374285130098e-03       2.621807263770e+04 
       4.495520052780e-03       2.675699850879e+04 
       4.617166397826e-03       2.728784572305e+04 
       4.739196656206e-03       2.781060081581e+04 
       4.861585598387e-03       2.832519152338e+04 
       4.984310063898e-03       2.883161467426e+04 
       5.107348771173e-03       2.932985210753e+04 
       5.230682145849e-03       2.981988923089e+04 
       5.354292165806e-03       3.030172713910e+04 
       5.478162221362e-03       3.077542669905e+04 
       5.602276989120e-03       3.124097553501e+04 
       5.726622318144e-03       3.169842752127e+04 
       5.851185127201e-03       3.214780843669e+04 
       5.975953311965e-03       3.258917108277e+04 
       6.100915661177e-03       3.302255901504e+04 
       6.226061780830e-03       3.344801966278e+04 
       6.351382025580e-03       3.386562491670e+04 
       6.476867436637e-03       3.427542336245e+04 
       6.602509685486e-03       3.467747196327e+04 
       6.728301022834e-03       3.507183568110e+04 
       6.854234232271e-03       3.545858468882e+04 
       6.980302588166e-03       3.583778291276e+04 
       7.106499817369e-03       3.620950398990e+04 
       7.232820064357e-03       3.657381434913e+04 
       7.359257859472e-03       3.693077796402e+04 
       7.485808089948e-03       3.728046745743e+04 
       7.612465973473e-03       3.762296128865e+04 
       7.739227034024e-03       3.795833201505e+04 
       7.866087079765e-03       3.828664045722e+04 
       7.993042182815e-03       3.860798216215e+04 
       8.120088660712e-03       3.892241819566e+04 
       8.247223059408e-03       3.923001389949e+04 
       8.374442137662e-03       3.953085185233e+04 
       8.501742852697e-03       3.982501524113e+04 
       8.629122347018e-03       4.011255952776e+04 
       8.756577936269e-03       4.039357737934e+04 
       8.884107098054e-03       4.066812274289e+04 
       9.011707461635e-03       4.093628244144e+04 
       9.139376798416e-03       4.119811023178e+04 
       9.267113013164e-03       4.145368721340e+04 
       9.394914135896e-03       4.170308371685e+04 
       9.522778314375e-03       4.194637237480e+04 
       9.650703807167e-03       4.218361891631e+04 
       9.778688977208e-03       4.241489051554e+04 
       9.906732285847e-03       4.264025168312e+04 
       1.003483228732e-02       4.285977305112e+04 
       1.016298762363e-02       4.307352149919e+04 
       1.029119701977e-02       4.328157560199e+04 
       1.041945927931e-02       4.348397200345e+04 
       1.054777328031e-02       4.368081273875e+04 
       1.067613797146e-02       4.387213737781e+04 
       1.080455236855e-02       4.405801330034e+04 
       1.093301555115e-02       4.423852112522e+04 
       1.106152665953e-02       4.441370356837e+04 
       1.119008489182e-02       4.458363411992e+04 
       1.131868950126e-02       4.474837326583e+04 
       1.144733979380e-02       4.490798653036e+04 
       1.157603512572e-02       4.506252916639e+04 
       1.170477490146e-02       4.521206767052e+04 
       1.183355857164e-02       4.535665798659e+04 
       1.196238563113e-02       4.549636679325e+04 
       1.209125561732e-02       4.563124863498e+04 
       1.222016810846e-02       4.576136518947e+04 
       1.234912272217e-02       4.588677573881e+04 
       1.247811911395e-02       4.600753731428e+04 
       1.260715697590e-02       4.612372240007e+04 
       1.273623603548e-02       4.623536084741e+04 
       1.286535605431e-02       4.634253331612e+04 
       1.299451682714e-02       4.644528245488e+04 
       1.312371818085e-02       4.654366604837e+04 
       1.325295997348e-02       4.663774759353e+04 
       1.338224209338e-02       4.672755682296e+04 
       1.351156445845e-02       4.681315755596e+04 
       1.364092701532e-02       4.689461041257e+04 
       1.377032973874e-02       4.697197323827e+04 
       1.389977263087e-02       4.704526654396e+04 
       1.402925572076e-02       4.711459208653e+04 
       1.415877906376e-02       4.717994323132e+04 
       1.428834274102e-02       4.724140938331e+04 
       1.441794685911e-02       4.729902665887e+04 
       1.454759154951e-02       4.735284292304e+04 
       1.467727696828e-02       4.740290569834e+04 
       1.480700329574e-02       4.744928315524e+04 
       1.493677073611e-02       4.749201260762e+04 
       1.506657951731e-02       4.753111490225e+04 
       1.519642989065e-02       4.756666400302e+04 
       1.532632213066e-02       4.759868728942e+04 
       1.545625653488e-02       4.762726906813e+04 
       1.558623342377e-02       4.765241877357e+04 
       1.571625314048e-02       4.767419738441e+04 
       1.584631605087e-02       4.769263542657e+04 
       1.597642254333e-02       4.770779833143e+04 
       1.610657302880e-02       4.771970783724e+04 
       1.623676794070e-02       4.772839244924e+04 
       1.636700773495e-02       4.773396652221e+04 
       1.649729289000e-02       4.773643171269e+04 
       1.662762390681e-02       4.773578550847e+04 
       1.675800130898e-02       4.773212965714e+04 
       1.688842564281e-02       4.772550104088e+04 
       1.701889747736e-02       4.771592170565e+04 
       1.714941740463e-02       4.770342081117e+04 
       1.727998603968e-02       4.768809036313e+04 
       1.741060402077e-02       4.766993167847e+04 
       1.754127200957e-02       4.764897618319e+04 
       1.767199069133e-02       4.762528630924e+04 
       1.780276077512e-02       4.759892646510e+04 
       1.793358299404e-02       4.756986841124e+04 
       1.806445810552e-02       4.753822796657e+04 
       1.819538689151e-02       4.750397099222e+04 
       1.832637015887e-02       4.746721178827e+04 
       1.845740873958e-02       4.742792270809e+04 
       1.858850349115e-02       4.738616149753e+04 
       1.871965529689e-02       4.734197836150e+04 
       1.885086506634e-02       4.729543962774e+04 
       1.898213373560e-02       4.724653111376e+04 
       1.911346226774e-02       4.719528329380e+04 
       1.924485165324e-02       4.714173149188e+04 
       1.937630291040e-02       4.708597886326e+04 
       1.950781708582e-02       4.702803039421e+04 
       1.963939525484e-02       4.696789360144e+04 
       1.977103852206e-02       4.690564541968e+04 
       1.990274802185e-02       4.684130774596e+04 
       2.003452491889e-02       4.677490340083e+04 
       2.016637040868e-02       4.670644078524e+04 
       2.029828571819e-02       4.663596541722e+04 
       2.043027210639e-02       4.656357418082e+04 
       2.056233086489e-02       4.648927501726e+04 
       2.069446331858e-02       4.641308219890e+04 
       2.082667082630e-02       4.633503308510e+04 
       2.095895478150e-02       4.625511856288e+04 
       2.109131661297e-02       4.617340177011e+04 
       2.122375778555e-02       4.608995784731e+04 
       2.135627980093e-02       4.600479264333e+04 
       2.148888419835e-02       4.591792554770e+04 
       2.162157255550e-02       4.582938145496e+04 
       2.175434648927e-02       4.573926422136e+04 
       2.188720765668e-02       4.564746714866e+04 
       2.202015775570e-02       4.555419730324e+04 
       2.215319852624e-02       4.545928184625e+04 
       2.228633175103e-02       4.536290534249e+04 
       2.241955925662e-02       4.526504190502e+04 
       2.255288291442e-02       4.516574408701e+04 
       2.268630464169e-02       4.506502778787e+04 
       2.281982640262e-02       4.496289584342e+04 
       2.295345020948e-02       4.485941088877e+04 
       2.308717812372e-02       4.475461075745e+04 
       2.322101225714e-02       4.464844927651e+04 
       2.335495477316e-02       4.454103425071e+04 
       2.348900788802e-02       4.443247484378e+04 
       2.362317387211e-02       4.432254236949e+04 
       2.375745505128e-02       4.421142124317e+04 
       2.389185380823e-02       4.409920843031e+04 
       2.402637258396e-02       4.398577755475e+04 
       2.416101387920e-02       4.387133849966e+04 
       2.429578025593e-02       4.375571911611e+04 
       2.443067433897e-02       4.363902784284e+04 
       2.456569881760e-02       4.352125919361e+04 
       2.470085644720e-02       4.340255465060e+04 
       2.483615005099e-02       4.328286992768e+04 
       2.497158252182e-02       4.316218984416e+04 
       2.510715682399e-02       4.304055112988e+04 
       2.524287599519e-02       4.291804498672e+04 
       2.537874314840e-02       4.279462705931e+04 
       2.551476147398e-02       4.267024703614e+04 
       2.565093424176e-02       4.254513910531e+04 
       2.578726480319e-02       4.241912509942e+04 
       2.592375659357e-02       4.229239956567e+04 
       2.606041313443e-02       4.216474795364e+04 
       2.619723803586e-02       4.203640452639e+04 
       2.633423499905e-02       4.190736451184e+04 
       2.647140781883e-02       4.177765580857e+04 
       2.660876038633e-02       4.164719747152e+04 
       2.674629669174e-02       4.151604963442e+04 
       2.688402082718e-02       4.138432084370e+04 
       2.702193698961e-02       4.125193291074e+04 
       2.716004948393e-02       4.111887403687e+04 
       2.729836272614e-02       4.098524559043e+04 
       2.743688124658e-02       4.085110393787e+04 
       2.757560969342e-02       4.071638294468e+04 
       2.771455283611e-02       4.058113358188e+04 
       2.785371556908e-02       4.044543665744e+04 
       2.799310291555e-02       4.030905157212e+04 
       2.813272003144e-02       4.017239770809e+04 
       2.827257220947e-02       4.003523308420e+04 
       2.841266488342e-02       3.989760132851e+04 
       2.855300363254e-02       3.975952047891e+04 
       2.869359418611e-02       3.962106696922e+04 
       2.883444242821e-02       3.948217162300e+04 
       2.897555440270e-02       3.934293755962e+04 
       2.911693631831e-02       3.920340921049e+04 
       2.925859455403e-02       3.906348992968e+04 
       2.940053566466e-02       3.892327009101e+04 
       2.954276638660e-02       3.878270237174e+04 
       2.968529364389e-02       3.864188539741e+04 
       2.982812455446e-02       3.850069107575e+04 
       2.997126643672e-02       3.835929605988e+04 
       3.011472681631e-02       3.821770814712e+04 
       3.025851343327e-02       3.807584712499e+04 
       3.040263424936e-02       3.793372891301e+04 
       3.054709745588e-02       3.779136267895e+04 
       3.069191148164e-02       3.764886487931e+04 
       3.083708500144e-02       3.750620259845e+04 
       3.098262694481e-02       3.736328759175e+04 
       3.112854650519e-02       3.722031943575e+04 
       3.127485314956e-02       3.707715300607e+04 
       3.142155662839e-02       3.693383599772e+04 
       3.156866698619e-02       3.679036069903e+04 
       3.171619457241e-02       3.664689587809e+04 
       3.186415005299e-02       3.650311252851e+04 
       3.201254442231e-02       3.635935999051e+04 
       3.216138901583e-02       3.621567653065e+04 
       3.231069552324e-02       3.607184298809e+04 
       3.246047600231e-02       3.592782133363e+04 
       3.261074289342e-02       3.578373871706e+04 
       3.276150903475e-02       3.563964058091e+04 
       3.291278767826e-02       3.549561769900e+04 
       3.306459250652e-02       3.535148808046e+04 
       3.321693765032e-02       3.520737905593e+04 
       3.336983770721e-02       3.506324101819e+04 
       3.352330776104e-02       3.491905549746e+04 
       3.367736340251e-02       3.477500354057e+04 
       3.383202075074e-02       3.463086525575e+04 
       3.398729647611e-02       3.448665906957e+04 
       3.414320782424e-02       3.434269020203e+04 
       3.429977264135e-02       3.419858849135e+04 
       3.445700940097e-02       3.405451399943e+04 
       3.461493723219e-02       3.391054968440e+04 
       3.477357594950e-02       3.376663325402e+04 
       3.493294608426e-02       3.362273657022e+04 
       3.509306891812e-02       3.347892545743e+04 
       3.525396651832e-02       3.333517009388e+04 
       3.541566177505e-02       3.319140565130e+04 
       3.557817844112e-02       3.304778353222e+04 
       3.574154117398e-02       3.290421877970e+04 
       3.590577558037e-02       3.276071230177e+04 
       3.607090826363e-02       3.261724353271e+04 
       3.623696687415e-02       3.247396414592e+04 
       3.640398016286e-02       3.233063111383e+04 
       3.657197803826e-02       3.218750258281e+04 
       3.674099162718e-02       3.204425865618e+04 
       3.691105333946e-02       3.190127259864e+04 
       3.708219693704e-02       3.175836625129e+04 
       3.725445760771e-02       3.161543740813e+04 
       3.742787204388e-02       3.147268431209e+04 
       3.760247852693e-02       3.132996767402e+04 
       3.777831701738e-02       3.118720529711e+04 
       3.795542925160e-02       3.104476429232e+04 
       3.813385884547e-02       3.090220482315e+04 
       3.831365140575e-02       3.075979568897e+04 
       3.849485464961e-02       3.061738270296e+04 
       3.867751853334e-02       3.047512700353e+04 
       3.886169539085e-02       3.033282402588e+04 
       3.904744008297e-02       3.019072153629e+04 
       3.923481015862e-02       3.004850058504e+04 
       3.942386602878e-02       2.990645673001e+04 
       3.961467115480e-02       2.976433291662e+04 
       3.980729225215e-02       2.962231499555e+04 
       4.000179951144e-02       2.948023070544e+04 
       4.019826683821e-02       2.933818507188e+04 
       4.039677211363e-02       2.919626624235e+04 
       4.059739747821e-02       2.905418989895e+04 
       4.080022964095e-02       2.891207521188e+04 
       4.100536021680e-02       2.877002880207e+04 
       4.121288609538e-02       2.862784581935e+04 
       4.142290984474e-02       2.848567229552e+04 
       4.163554015384e-02       2.834338838399e+04 
       4.185089231848e-02       2.820101977125e+04 
       4.206908877585e-02       2.805858269822e+04 
       4.229025969333e-02       2.791598119471e+04 
       4.251454361849e-02       2.777324363155e+04 
       4.274208819781e-02       2.763033461737e+04 
       4.297305097288e-02       2.748728954363e+04 
       4.320760026430e-02       2.734395476232e+04 
       4.344591615477e-02       2.720045559378e+04 
       4.368819158506e-02       2.705669215842e+04 
       4.393463357821e-02       2.691262706282e+04 
       4.418546461030e-02       2.676823012536e+04 
       4.444092414897e-02       2.662352460130e+04 
       4.470127038427e-02       2.647840493704e+04 
       4.496678218112e-02       2.633289743982e+04 
       4.523776128741e-02       2.618687482694e+04 
       4.551453483818e-02       2.604037641400e+04 
       4.579745820379e-02       2.589331354346e+04 
       4.608691823889e-02       2.574568948887e+04 
       4.638333700032e-02       2.559727241559e+04 
       4.668717601517e-02       2.544823110206e+04 
       4.699894119710e-02       2.529846723179e+04 
       4.731918852922e-02       2.514776684560e+04 
       4.764853065697e-02       2.499623435801e+04 
       4.798764456578e-02       2.484358222457e+04 
       4.833728055739e-02       2.468977132517e+04 
       4.869827278717e-02       2.453479275969e+04 
       4.907155168681e-02       2.437849145497e+04 
       4.945815867341e-02       2.422076664236e+04 
       4.985926364506e-02       2.406136498437e+04 
       5.027618588681e-02       2.390014582428e+04 
       5.071041917029e-02       2.373707114729e+04 
       5.116366203217e-02       2.357174709795e+04 
       5.163785447463e-02       2.340393777127e+04 
       5.213522265879e-02       2.323345247584e+04 
       5.265833357557e-02       2.305983559113e+04 
       5.321016219530e-02       2.288281892600e+04 
       5.379417422846e-02       2.270176857263e+04 
       5.441442837222e-02       2.251622032996e+04 
       5.507570273043e-02       2.232533885918e+04 
       5.578365085150e-02       2.212831672567e+04 
       5.654499322910e-02       2.192399364309e+04 
       5.736774950186e-02       2.171093515069e+04 
       5.826151364575e-02       2.148733039852e+04 
       5.923776661921e-02       2.125066762501e+04 
       6.031020354924e-02       2.099777749707e+04 
       6.149501788892e-02       2.072427180917e+04 
       6.281102206659e-02       2.042456004891e+04 
       6.427938303153e-02       2.009090246307e+04 
       6.592261985865e-02       1.971361152818e+04 
       6.776241751004e-02       1.928046540619e+04 
       6.981594577067e-02       1.877793157024e+04 
       7.209102948614e-02       1.819305408036e+04 
       7.458175928496e-02       1.751749979675e+04 
       7.726713099033e-02       1.675205969017e+04 
       8.011444999506e-02       1.591006245105e+04 
       8.308630573260e-02       1.501698260796e+04 
       8.614758783256e-02       1.410631918810e+04 
       8.926970205547e-02       1.321376933599e+04 
       9.243159685326e-02       1.237158124440e+04 
       9.561881257747e-02       1.160478205971e+04 
       9.882186365469e-02       1.092924028338e+04 
       1.020347088500e-01       1.035172402492e+04 
       1.052535715013e-01       9.870482691986e+03 
       1.084761176480e-01       9.477043129152e+03 
       1.117009149765e-01       9.157824584108e+03 
       1.149270881487e-01       8.895936090425e+03 
       1.181541034701e-01       8.672908966771e+03 
       1.213816359200e-01       8.470392363891e+03 
       1.246094876149e-01       8.271683052939e+03 
       1.278375380211e-01       8.063270819226e+03 
