# total [l(l+1)/2pi] C_l's (units: [microK]^2)
# for l=2 to 3000, i.e. number of multipoles equal to 2999
#
# -> if you don't want to see such a header, set 'headers' to 'no' in input file
# -> for CMB lensing (d), these are C_l^dd for the deflection field.
#    Remember the conversion factors:
#    C_l^dd (deflection) = l(l+1) C_l^phi-phi
#    C_l^gg (shear/convergence) = 1/4 (l(l+1))^2 C_l^phi-phi
#
# 1:l     2:TT                     3:EE                     4:BB                     5:TE                     6:dd                     7:dT                     8:dE                 
    2       1.016496111378e+03       3.036815494396e-02       0.000000000000e+00       2.597942938935e+00       4.926191889850e-08       2.971556942963e-03      -1.218824091555e-05 
    3       9.631421993479e+02       3.900517384616e-02       0.000000000000e+00       2.918203621499e+00       6.085178301310e-08       2.982033905243e-03      -1.306455992033e-05 
    4       9.123773872469e+02       3.381661030684e-02       0.000000000000e+00       2.728606874888e+00       7.051079749362e-08       2.914925306360e-03      -1.106229065909e-05 
    5       8.742900823752e+02       2.261674011145e-02       0.000000000000e+00       2.324303415561e+00       7.887597832384e-08       2.818389126289e-03      -7.557756116666e-06 
    6       8.481597601136e+02       1.267251553053e-02       0.000000000000e+00       1.872830492524e+00       8.621327469947e-08       2.711827420135e-03      -3.710048765562e-06 
    7       8.314316786675e+02       6.847242938515e-03       0.000000000000e+00       1.471412538408e+00       9.272191964722e-08       2.605046916175e-03      -4.196590333416e-07 
    8       8.217211796339e+02       4.406163171293e-03       0.000000000000e+00       1.162696335722e+00       9.851631289097e-08       2.502116098758e-03       1.772851481726e-06 
    9       8.172406014233e+02       3.531512779179e-03       0.000000000000e+00       9.559991406871e-01       1.036999234887e-07       2.404364519037e-03       2.702034851800e-06 
   10       8.165552629320e+02       3.012028231579e-03       0.000000000000e+00       8.415542427832e-01       1.083485123425e-07       2.312704278553e-03       2.525495498115e-06 
   11       8.189189033486e+02       2.533831410356e-03       0.000000000000e+00       8.000060981588e-01       1.094812179503e-07       2.237031962348e-03       1.626099365411e-06 
   12       8.237243672559e+02       2.207603856496e-03       0.000000000000e+00       8.091422287126e-01       1.130333009463e-07       2.153119780056e-03       4.344989721727e-07 
   13       8.302837963865e+02       2.116477169062e-03       0.000000000000e+00       8.487546689805e-01       1.162126170019e-07       2.078197968704e-03      -6.381423972653e-07 
   14       8.380210939991e+02       2.205407821573e-03       0.000000000000e+00       9.038384602415e-01       1.190598567640e-07       1.999853455894e-03      -1.341289850575e-06 
   15       8.470784992336e+02       2.388431151261e-03       0.000000000000e+00       9.654399992153e-01       1.216104673490e-07       1.928936393382e-03      -1.569493464750e-06 
   16       8.573674134343e+02       2.645423900386e-03       0.000000000000e+00       1.028040172985e+00       1.238956744165e-07       1.864272232967e-03      -1.385626303233e-06 
   17       8.682531459010e+02       3.016374386165e-03       0.000000000000e+00       1.090153086640e+00       1.259417545871e-07       1.803761010401e-03      -9.540489818522e-07 
   18       8.798159089058e+02       3.541078452229e-03       0.000000000000e+00       1.153895550122e+00       1.277215948395e-07       1.743468864002e-03      -4.849471392766e-07 
   19       8.921556449913e+02       4.222452471882e-03       0.000000000000e+00       1.220623005022e+00       1.294034798990e-07       1.685917179261e-03      -1.193706050609e-07 
   20       9.049015118007e+02       5.046539679622e-03       0.000000000000e+00       1.290986397535e+00       1.308489434880e-07       1.632616169309e-03       2.359838896444e-08 
   21       9.181542471511e+02       6.008711822095e-03       0.000000000000e+00       1.364852500471e+00       1.321448248163e-07       1.584046271209e-03      -6.356046942895e-08 
   22       9.319212015598e+02       7.105313804044e-03       0.000000000000e+00       1.441249499287e+00       1.332665013254e-07       1.537619370500e-03      -3.122960921863e-07 
   23       9.461267148059e+02       8.338266059813e-03       0.000000000000e+00       1.517736615475e+00       1.342835964421e-07       1.492698502548e-03      -6.365480454010e-07 
   24       9.605442171585e+02       9.709859885999e-03       0.000000000000e+00       1.591088077814e+00       1.351481317092e-07       1.448077722335e-03      -9.237968376560e-07 
   25       9.753259929725e+02       1.122081916056e-02       0.000000000000e+00       1.659153822233e+00       1.359142230901e-07       1.405575459202e-03      -1.105243600455e-06 
   26       9.905965652641e+02       1.287303825748e-02       0.000000000000e+00       1.720141112714e+00       1.365605217821e-07       1.366899064727e-03      -1.135137027991e-06 
   27       1.006219565079e+03       1.468111872190e-02       0.000000000000e+00       1.773243502499e+00       1.371137369203e-07       1.331114043308e-03      -1.037015193376e-06 
   28       1.021925294715e+03       1.666341600553e-02       0.000000000000e+00       1.818178809958e+00       1.375378980684e-07       1.295633891431e-03      -8.722070459021e-07 
   29       1.037781167156e+03       1.883013289952e-02       0.000000000000e+00       1.855417042997e+00       1.379054865913e-07       1.260909390563e-03      -6.897801237996e-07 
   30       1.053888282217e+03       2.118874900620e-02       0.000000000000e+00       1.885941253815e+00       1.382367490718e-07       1.227887526106e-03      -5.495357566867e-07 
   31       1.070270501242e+03       2.374651814375e-02       0.000000000000e+00       1.910755701772e+00       1.384523384293e-07       1.196860055816e-03      -5.146508520472e-07 
   32       1.086943095472e+03       2.651138322359e-02       0.000000000000e+00       1.929468759643e+00       1.385965801577e-07       1.167868729860e-03      -5.791852916317e-07 
   33       1.103849641526e+03       2.949134948720e-02       0.000000000000e+00       1.941171462258e+00       1.386975390947e-07       1.140188941729e-03      -7.013406617485e-07 
   34       1.120889309080e+03       3.269389121465e-02       0.000000000000e+00       1.944839863385e+00       1.387191904662e-07       1.112586088953e-03      -8.278161178065e-07 
   35       1.138112932517e+03       3.612480297982e-02       0.000000000000e+00       1.939511179304e+00       1.386930324526e-07       1.085374171198e-03      -9.323435735013e-07 
   36       1.155583524350e+03       3.978886182130e-02       0.000000000000e+00       1.924151587707e+00       1.386257709047e-07       1.059171555409e-03      -9.933479885439e-07 
   37       1.173324286145e+03       4.369051110071e-02       0.000000000000e+00       1.897814454082e+00       1.384787049851e-07       1.034358771265e-03      -9.913032595455e-07 
   38       1.191336695893e+03       4.783536752554e-02       0.000000000000e+00       1.860373825435e+00       1.382897529463e-07       1.011165860531e-03      -9.355108739870e-07 
   39       1.209579385532e+03       5.222915560046e-02       0.000000000000e+00       1.812037921077e+00       1.380942134732e-07       9.895136435313e-04      -8.504292210502e-07 
   40       1.227956714554e+03       5.687727824320e-02       0.000000000000e+00       1.753164314787e+00       1.378789263472e-07       9.689011494342e-04      -7.706166020747e-07 
   41       1.246362201174e+03       6.178481980147e-02       0.000000000000e+00       1.684123306424e+00       1.375973717677e-07       9.486229373476e-04      -7.320848280804e-07 
   42       1.264838177494e+03       6.695660509274e-02       0.000000000000e+00       1.604812903581e+00       1.372718281342e-07       9.287509099427e-04      -7.377398901521e-07 
   43       1.283459455009e+03       7.239712541014e-02       0.000000000000e+00       1.515001102436e+00       1.369273960767e-07       9.094915408225e-04      -7.776096656741e-07 
   44       1.302287469973e+03       7.811049850139e-02       0.000000000000e+00       1.414456900057e+00       1.365568516036e-07       8.909014838863e-04      -8.368765811853e-07 
   45       1.321365210521e+03       8.410050725382e-02       0.000000000000e+00       1.302915863823e+00       1.361327522941e-07       8.729368193521e-04      -8.991829239952e-07 
   46       1.340704445458e+03       9.037077375972e-02       0.000000000000e+00       1.179967025209e+00       1.356789772100e-07       8.557025019340e-04      -9.599238603289e-07 
   47       1.360291605249e+03       9.692460537009e-02       0.000000000000e+00       1.045130395803e+00       1.352233754027e-07       8.392614295803e-04      -1.017748009943e-06 
   48       1.380088774974e+03       1.037649267078e-01       0.000000000000e+00       8.978845284852e-01       1.347737495984e-07       8.235438998927e-04      -1.071093791390e-06 
   49       1.400031700155e+03       1.108942642116e-01       0.000000000000e+00       7.376635506582e-01       1.343117745048e-07       8.083254321553e-04      -1.118172878130e-06 
   50       1.420055187422e+03       1.183146586326e-01       0.000000000000e+00       5.639685211668e-01       1.338048867018e-07       7.933217296362e-04      -1.157752876766e-06 
   51       1.440182061221e+03       1.260274103828e-01       0.000000000000e+00       3.767440182020e-01       1.332669244530e-07       7.785763831690e-04      -1.191926725534e-06 
   52       1.460454906344e+03       1.340332383475e-01       0.000000000000e+00       1.760986436756e-01       1.327178002528e-07       7.641884992975e-04      -1.224425410022e-06 
   53       1.480910095212e+03       1.423323274914e-01       0.000000000000e+00      -3.779801041380e-02       1.321644147727e-07       7.501986046397e-04      -1.260008081990e-06 
   54       1.501577082874e+03       1.509243100122e-01       0.000000000000e+00      -2.647129488174e-01       1.315970860866e-07       7.365788479940e-04      -1.304564552981e-06 
   55       1.522477346419e+03       1.598085286398e-01       0.000000000000e+00      -5.044333443646e-01       1.309978501627e-07       7.232701651467e-04      -1.363474179683e-06 
   56       1.543622509795e+03       1.689849463051e-01       0.000000000000e+00      -7.570470919493e-01       1.303800880620e-07       7.103347192919e-04      -1.435704182358e-06 
   57       1.565014518287e+03       1.784534294416e-01       0.000000000000e+00      -1.022727723330e+00       1.297611793139e-07       6.978415005816e-04      -1.517726307139e-06 
   58       1.586645250066e+03       1.882134779553e-01       0.000000000000e+00      -1.301655445434e+00       1.291499421663e-07       6.858179210041e-04      -1.604988631481e-06 
   59       1.608495797328e+03       1.982642173706e-01       0.000000000000e+00      -1.594018077235e+00       1.285444369934e-07       6.742436263992e-04      -1.691818609457e-06 
   60       1.630535747441e+03       2.086043909773e-01       0.000000000000e+00      -1.900011986639e+00       1.279295691743e-07       6.630440415411e-04      -1.771322663572e-06 
   61       1.652735073180e+03       2.192319011586e-01       0.000000000000e+00      -2.219791041861e+00       1.272851100960e-07       6.521266345381e-04      -1.836872225273e-06 
   62       1.675104548488e+03       2.301423308390e-01       0.000000000000e+00      -2.553297956263e+00       1.266204204266e-07       6.415199373044e-04      -1.887396761326e-06 
   63       1.697663170124e+03       2.413300747124e-01       0.000000000000e+00      -2.900396577283e+00       1.259503873805e-07       6.312690407618e-04      -1.923676121979e-06 
   64       1.720426036607e+03       2.527887390550e-01       0.000000000000e+00      -3.260919832944e+00       1.252850031356e-07       6.213933700423e-04      -1.946942815081e-06 
   65       1.743404029430e+03       2.645111195670e-01       0.000000000000e+00      -3.634669019276e+00       1.246281540578e-07       6.118832529388e-04      -1.958925518119e-06 
   66       1.766603494280e+03       2.764891792152e-01       0.000000000000e+00      -4.021413087731e+00       1.239763081547e-07       6.026963544917e-04      -1.961894058536e-06 
   67       1.790025922258e+03       2.887140260741e-01       0.000000000000e+00      -4.420887932611e+00       1.233170975214e-07       5.937539777110e-04      -1.958705862302e-06 
   68       1.813671103714e+03       3.011767511412e-01       0.000000000000e+00      -4.832828150467e+00       1.226354472574e-07       5.849711097541e-04      -1.952231807064e-06 
   69       1.837548044424e+03       3.138711884416e-01       0.000000000000e+00      -5.257071383950e+00       1.219385575337e-07       5.763661377795e-04      -1.943318257750e-06 
   70       1.861665698807e+03       3.267916769572e-01       0.000000000000e+00      -5.693473937807e+00       1.212381281636e-07       5.679773755539e-04      -1.932295291782e-06 
   71       1.886029467173e+03       3.399322499771e-01       0.000000000000e+00      -6.141880293394e+00       1.205429338708e-07       5.598305066838e-04      -1.919549046169e-06 
   72       1.910640965747e+03       3.532866349343e-01       0.000000000000e+00      -6.602123226581e+00       1.198581485374e-07       5.519369673197e-04      -1.905524990337e-06 
   73       1.935497796710e+03       3.668482532414e-01       0.000000000000e+00      -7.074023925660e+00       1.191846178504e-07       5.442922708917e-04      -1.890731273633e-06 
   74       1.960593318224e+03       3.806102201271e-01       0.000000000000e+00      -7.557392109249e+00       1.185180788580e-07       5.368742748810e-04      -1.875742147532e-06 
   75       1.985916414472e+03       3.945653444724e-01       0.000000000000e+00      -8.052026144197e+00       1.178483249495e-07       5.296413896236e-04      -1.861201462532e-06 
   76       2.011456196939e+03       4.087057562096e-01       0.000000000000e+00      -8.557705342457e+00       1.171637217509e-07       5.225488324044e-04      -1.847750665932e-06 
   77       2.037217606385e+03       4.230217104390e-01       0.000000000000e+00      -9.074164969346e+00       1.164687860111e-07       5.156067843607e-04      -1.835781704948e-06 
   78       2.063208251387e+03       4.375025639266e-01       0.000000000000e+00      -9.601116870959e+00       1.157713007438e-07       5.088346932956e-04      -1.825623311571e-06 
   79       2.089433602711e+03       4.521371205200e-01       0.000000000000e+00      -1.013825684912e+01       1.150770842478e-07       5.022436732929e-04      -1.817609827304e-06 
   80       2.115896864465e+03       4.669136233473e-01       0.000000000000e+00      -1.068526461889e+01       1.143895963432e-07       4.958355956114e-04      -1.812080181207e-06 
   81       2.142598845253e+03       4.818197470164e-01       0.000000000000e+00      -1.124180376615e+01       1.137095178215e-07       4.896021507305e-04      -1.809376821108e-06 
   82       2.169537829328e+03       4.968425898141e-01       0.000000000000e+00      -1.180752170507e+01       1.130343024141e-07       4.835238815442e-04      -1.809844597938e-06 
   83       2.196709447738e+03       5.119686659049e-01       0.000000000000e+00      -1.238204963566e+01       1.123577005893e-07       4.775691877068e-04      -1.813829603221e-06 
   84       2.224109162356e+03       5.271843673891e-01       0.000000000000e+00      -1.296500889531e+01       1.116727589289e-07       4.717059289402e-04      -1.821560829415e-06 
   85       2.251740473348e+03       5.424774555750e-01       0.000000000000e+00      -1.355603131609e+01       1.109831497594e-07       4.659418844580e-04      -1.832763858590e-06 
   86       2.279607842418e+03       5.578358037748e-01       0.000000000000e+00      -1.415474218008e+01       1.102946198687e-07       4.602924285695e-04      -1.846949348777e-06 
   87       2.307714117227e+03       5.732469495210e-01       0.000000000000e+00      -1.476075418949e+01       1.096115807834e-07       4.547683192130e-04      -1.863514646784e-06 
   88       2.336060446454e+03       5.886980946624e-01       0.000000000000e+00      -1.537366753160e+01       1.089368688815e-07       4.493752248968e-04      -1.881736206005e-06 
   89       2.364646194869e+03       6.041761054601e-01       0.000000000000e+00      -1.599306994378e+01       1.082714907505e-07       4.441132378614e-04      -1.900761817593e-06 
   90       2.393468858390e+03       6.196675126827e-01       0.000000000000e+00      -1.661853677852e+01       1.076143534424e-07       4.389763734607e-04      -1.919602654995e-06 
   91       2.422523979155e+03       6.351585117032e-01       0.000000000000e+00      -1.724963106833e+01       1.069619792809e-07       4.339520557632e-04      -1.937125131844e-06 
   92       2.451805060587e+03       6.506349625938e-01       0.000000000000e+00      -1.788590359082e+01       1.063082048752e-07       4.290205893731e-04      -1.952042573217e-06 
   93       2.481305707143e+03       6.660826168504e-01       0.000000000000e+00      -1.852689665505e+01       1.056467192487e-07       4.241626711104e-04      -1.963204341104e-06 
   94       2.511026596186e+03       6.814878363620e-01       0.000000000000e+00      -1.917215597094e+01       1.049802890117e-07       4.193850846805e-04      -1.970557276981e-06 
   95       2.540969402533e+03       6.968369832544e-01       0.000000000000e+00      -1.982122069350e+01       1.043136880341e-07       4.146997776928e-04      -1.974384603871e-06 
   96       2.571134613522e+03       7.121162060610e-01       0.000000000000e+00      -2.047361997501e+01       1.036509564923e-07       4.101160693246e-04      -1.975030424393e-06 
   97       2.601521474621e+03       7.273114429298e-01       0.000000000000e+00      -2.112887308108e+01       1.029952713980e-07       4.056403990870e-04      -1.972903240365e-06 
   98       2.632127935027e+03       7.424084248297e-01       0.000000000000e+00      -2.178648950673e+01       1.023488097764e-07       4.012760689067e-04      -1.968479547966e-06 
   99       2.662950593275e+03       7.573926787575e-01       0.000000000000e+00      -2.244596909248e+01       1.017126043351e-07       3.970229785207e-04      -1.962307508442e-06 
  100       2.693984642836e+03       7.722495309447e-01       0.000000000000e+00      -2.310680214040e+01       1.010863914669e-07       3.928773541854e-04      -1.955010694351e-06 
  101       2.725223817723e+03       7.869641100639e-01       0.000000000000e+00      -2.376846953022e+01       1.004684514285e-07       3.888314707003e-04      -1.947291911366e-06 
  102       2.756660338095e+03       8.015213504362e-01       0.000000000000e+00      -2.443044283534e+01       9.985544053834e-08       3.848733667455e-04      -1.939937095619e-06 
  103       2.788284855860e+03       8.159059952371e-01       0.000000000000e+00      -2.509218443897e+01       9.924221523407e-08       3.809865535334e-04      -1.933819286590e-06 
  104       2.820088442507e+03       8.301029759951e-01       0.000000000000e+00      -2.575315427547e+01       9.862373732364e-08       3.771553533378e-04      -1.929713643887e-06 
  105       2.852068975588e+03       8.440986025622e-01       0.000000000000e+00      -2.641283084151e+01       9.800179886113e-08       3.733828114430e-04      -1.927690644508e-06 
  106       2.884225517563e+03       8.578795406176e-01       0.000000000000e+00      -2.707069325284e+01       9.737975149280e-08       3.696758466820e-04      -1.927607840604e-06 
  107       2.916556319043e+03       8.714324569843e-01       0.000000000000e+00      -2.772621505905e+01       9.676050542334e-08       3.660398036438e-04      -1.929286167732e-06 
