# total [l(l+1)/2pi] C_l's (units: [microK]^2)
# for l=2 to 3000, i.e. number of multipoles equal to 2999
#
# -> if you don't want to see such a header, set 'headers' to 'no' in input file
# -> for CMB lensing (d), these are C_l^dd for the deflection field.
#    Remember the conversion factors:
#    C_l^dd (deflection) = l(l+1) C_l^phi-phi
#    C_l^gg (shear/convergence) = 1/4 (l(l+1))^2 C_l^phi-phi
#
# 1:l     2:TT                     3:EE                     4:BB                     5:TE                     6:dd                     7:dT                     8:dE                 
    2       1.021756874787e+03       5.330860779126e-02       0.000000000000e+00       3.449690831841e+00       5.249279672490e-08       3.123898800994e-03      -1.616883606731e-05 
    3       9.633707973846e+02       6.816308339629e-02       0.000000000000e+00       3.880691898758e+00       6.599387494476e-08       3.176104035640e-03      -1.736040791504e-05 
    4       9.080586081113e+02       5.880124013407e-02       0.000000000000e+00       3.625011734105e+00       7.739080817275e-08       3.138123642552e-03      -1.476400222794e-05 
    5       8.664378064408e+02       3.900885530363e-02       0.000000000000e+00       3.067658975163e+00       8.741465935354e-08       3.062422745741e-03      -1.020249663169e-05 
    6       8.376830781544e+02       2.144377882078e-02       0.000000000000e+00       2.433199285807e+00       9.637759539339e-08       2.969949427927e-03      -5.206096387628e-06 
    7       8.192382045188e+02       1.106430177268e-02       0.000000000000e+00       1.858536775487e+00       1.044958966559e-07       2.872874413024e-03      -9.563449806869e-07 
    8       8.083690446079e+02       6.626926300341e-03       0.000000000000e+00       1.409688242683e+00       1.118586249720e-07       2.777917063553e-03       1.847133706175e-06 
    9       8.034309233949e+02       5.041663002248e-03       0.000000000000e+00       1.104896659062e+00       1.185596770339e-07       2.687240573343e-03       3.003779208893e-06 
   10       8.023677247264e+02       4.228455261507e-03       0.000000000000e+00       9.323558531213e-01       1.246853222055e-07       2.600120582946e-03       2.738629959516e-06 
   11       8.042337024934e+02       3.580304771592e-03       0.000000000000e+00       8.647429241264e-01       1.252346127856e-07       2.515243200269e-03       1.567507945415e-06 
   12       8.089797268269e+02       3.176810722171e-03       0.000000000000e+00       8.687062377266e-01       1.299567241299e-07       2.435615782825e-03       6.302492471806e-08 
   13       8.154801203485e+02       3.070264438947e-03       0.000000000000e+00       9.135006179488e-01       1.342653868010e-07       2.362677596923e-03      -1.255216060657e-06 
   14       8.235490151060e+02       3.136235936552e-03       0.000000000000e+00       9.763236593177e-01       1.382030704557e-07       2.288850417603e-03      -2.064802817141e-06 
   15       8.325040078777e+02       3.250343581642e-03       0.000000000000e+00       1.043401948054e+00       1.418061978944e-07       2.216765651775e-03      -2.257214063856e-06 
   16       8.429172109470e+02       3.418068849625e-03       0.000000000000e+00       1.107574582270e+00       1.451063965310e-07       2.146504451339e-03      -1.933794638969e-06 
   17       8.537296921045e+02       3.733428782134e-03       0.000000000000e+00       1.168463502244e+00       1.481307808014e-07       2.081391066132e-03      -1.324263003332e-06 
   18       8.654470775132e+02       4.272648481790e-03       0.000000000000e+00       1.230477948625e+00       1.508465251240e-07       2.019165854292e-03      -7.116126726094e-07 
   19       8.781348107855e+02       5.039943956364e-03       0.000000000000e+00       1.297055434303e+00       1.534448813631e-07       1.960007177994e-03      -2.746057575143e-07 
   20       8.910934188456e+02       6.008044428547e-03       0.000000000000e+00       1.370753244213e+00       1.557669267863e-07       1.901296285370e-03      -1.496241598301e-07 
   21       9.043461186887e+02       7.162570479519e-03       0.000000000000e+00       1.451276521887e+00       1.579090957324e-07       1.846126682770e-03      -3.241830037227e-07 
   22       9.179468840924e+02       8.487819711642e-03       0.000000000000e+00       1.536455846618e+00       1.598432696855e-07       1.796981995554e-03      -6.828953199922e-07 
   23       9.320028777574e+02       9.973186361428e-03       0.000000000000e+00       1.622356924568e+00       1.616473351217e-07       1.751843444928e-03      -1.108342287095e-06 
   24       9.464787910344e+02       1.160773516712e-02       0.000000000000e+00       1.704020971509e+00       1.632659520161e-07       1.705271639950e-03      -1.458162758382e-06 
   25       9.613550109785e+02       1.338819933109e-02       0.000000000000e+00       1.778287841099e+00       1.647604510407e-07       1.659042487557e-03      -1.643457814700e-06 
   26       9.765092581145e+02       1.531760563545e-02       0.000000000000e+00       1.842712811779e+00       1.661067222599e-07       1.616297266858e-03      -1.609780926548e-06 
   27       9.919355199135e+02       1.742162709775e-02       0.000000000000e+00       1.896773049964e+00       1.673348776244e-07       1.576367137604e-03      -1.414910089587e-06 
   28       1.007593432985e+03       1.973330787337e-02       0.000000000000e+00       1.940883389384e+00       1.684032141346e-07       1.536463141068e-03      -1.173352538642e-06 
   29       1.023527020112e+03       2.227057741684e-02       0.000000000000e+00       1.976158166536e+00       1.693946387411e-07       1.497160934840e-03      -9.488797433121e-07 
   30       1.039716207730e+03       2.504710826371e-02       0.000000000000e+00       2.004364369449e+00       1.703321255408e-07       1.459576130587e-03      -8.013124716651e-07 
   31       1.056066443471e+03       2.807514374203e-02       0.000000000000e+00       2.027278346722e+00       1.711243437844e-07       1.424111704432e-03      -7.895678944559e-07 
   32       1.072607576621e+03       3.135960108139e-02       0.000000000000e+00       2.044435670206e+00       1.718225781733e-07       1.391019256650e-03      -8.971238064397e-07 
   33       1.089350601567e+03       3.490146845982e-02       0.000000000000e+00       2.054522996052e+00       1.724592353255e-07       1.359771530887e-03      -1.064749299809e-06 
   34       1.106259546776e+03       3.870093159353e-02       0.000000000000e+00       2.056006730494e+00       1.729926572123e-07       1.329207357777e-03      -1.219254879628e-06 
   35       1.123366216462e+03       4.276367928030e-02       0.000000000000e+00       2.047383726785e+00       1.734594293123e-07       1.299386032702e-03      -1.330485261024e-06 
   36       1.140683432592e+03       4.709667631606e-02       0.000000000000e+00       2.026986071249e+00       1.738671554685e-07       1.270396624484e-03      -1.379177056175e-06 
   37       1.158190656564e+03       5.170693312955e-02       0.000000000000e+00       1.993298711414e+00       1.741706333795e-07       1.242028763992e-03      -1.350071814687e-06 
   38       1.175909946289e+03       5.660308387442e-02       0.000000000000e+00       1.946334835648e+00       1.744143321413e-07       1.214599347027e-03      -1.258516579733e-06 
   39       1.193846534723e+03       6.179432270087e-02       0.000000000000e+00       1.886723577096e+00       1.746396907916e-07       1.188375168056e-03      -1.137410380040e-06 
   40       1.211962885812e+03       6.728999331627e-02       0.000000000000e+00       1.815363431011e+00       1.748314111966e-07       1.163286242508e-03      -1.032618768402e-06 
   41       1.230203535340e+03       7.309902801167e-02       0.000000000000e+00       1.733137387260e+00       1.749351093578e-07       1.139037301497e-03      -9.910474433487e-07 
   42       1.248589879199e+03       7.922802304090e-02       0.000000000000e+00       1.639906310181e+00       1.749771823301e-07       1.115688769599e-03      -1.013364749683e-06 
   43       1.267148862030e+03       8.568255216529e-02       0.000000000000e+00       1.535216217923e+00       1.749872106794e-07       1.093235343624e-03      -1.081443171505e-06 
   44       1.285884082962e+03       9.246765326353e-02       0.000000000000e+00       1.418567880876e+00       1.749565424923e-07       1.071403854747e-03      -1.169160109508e-06 
   45       1.304787248796e+03       9.958756174256e-02       0.000000000000e+00       1.289453591199e+00       1.748526417642e-07       1.049801711729e-03      -1.248617590463e-06 
   46       1.323882220454e+03       1.070448871783e-01       0.000000000000e+00       1.147489854422e+00       1.747040169382e-07       1.028559279333e-03      -1.314736116205e-06 
   47       1.343190089607e+03       1.148411389481e-01       0.000000000000e+00       9.923176726183e-01       1.745439349391e-07       1.007891159770e-03      -1.369780457083e-06 
   48       1.362714950290e+03       1.229768983430e-01       0.000000000000e+00       8.235637329810e-01       1.743818406090e-07       9.879059901512e-04      -1.417153208703e-06 
   49       1.382442317452e+03       1.314517746417e-01       0.000000000000e+00       6.408388163761e-01       1.741960668673e-07       9.685860215749e-04      -1.461534641608e-06 
   50       1.402351042291e+03       1.402652454634e-01       0.000000000000e+00       4.437677840118e-01       1.739479906774e-07       9.498423065144e-04      -1.508025434757e-06 
   51       1.422456540124e+03       1.494195486498e-01       0.000000000000e+00       2.320928253381e-01       1.736543739072e-07       9.317593678135e-04      -1.558802629334e-06 
   52       1.442776562602e+03       1.589174994220e-01       0.000000000000e+00       5.595484708591e-03       1.733391745500e-07       9.144114690486e-04      -1.615371764906e-06 
   53       1.463317802602e+03       1.687616724485e-01       0.000000000000e+00      -2.359325702057e-01       1.730107058055e-07       8.977811689273e-04      -1.679472933771e-06 
   54       1.484074947926e+03       1.789543995317e-01       0.000000000000e+00      -4.926896538344e-01       1.726573075214e-07       8.817451558963e-04      -1.753098665216e-06 
   55       1.505038295071e+03       1.894974764099e-01       0.000000000000e+00      -7.648409082768e-01       1.722573647353e-07       8.661361348493e-04      -1.837644630278e-06 
   56       1.526220973389e+03       2.003912031693e-01       0.000000000000e+00      -1.052441862672e+00       1.718271908939e-07       8.509912508556e-04      -1.930943340320e-06 
   57       1.547636826465e+03       2.116351013972e-01       0.000000000000e+00      -1.355496068984e+00       1.713879499809e-07       8.363690392421e-04      -2.029171895087e-06 
   58       1.569291845111e+03       2.232281708312e-01       0.000000000000e+00      -1.673975914724e+00       1.709504496838e-07       8.222732099242e-04      -2.127544337656e-06 
   59       1.591183554567e+03       2.351688757128e-01       0.000000000000e+00      -2.007821822144e+00       1.705124580709e-07       8.086448086712e-04      -2.220223652863e-06 
   60       1.613300401708e+03       2.474551311402e-01       0.000000000000e+00      -2.356941447425e+00       1.700557742456e-07       7.953540442945e-04      -2.300230681380e-06 
   61       1.635629343705e+03       2.600838697570e-01       0.000000000000e+00      -2.721229963174e+00       1.695559749066e-07       7.822537470546e-04      -2.360966548379e-06 
   62       1.658181990805e+03       2.730496590338e-01       0.000000000000e+00      -3.100638037578e+00       1.690246531659e-07       7.693810021308e-04      -2.401606429940e-06 
   63       1.680973270864e+03       2.863457479921e-01       0.000000000000e+00      -3.495117762292e+00       1.684801174352e-07       7.568077886361e-04      -2.423341934125e-06 
   64       1.704013400109e+03       2.999644330528e-01       0.000000000000e+00      -3.904602786345e+00       1.679346880967e-07       7.445814468588e-04      -2.427972622114e-06 
   65       1.727307530564e+03       3.138970310746e-01       0.000000000000e+00      -4.329008184282e+00       1.673932005079e-07       7.327211172380e-04      -2.417963394851e-06 
   66       1.750855397478e+03       3.281338523913e-01       0.000000000000e+00      -4.768230324321e+00       1.668513816194e-07       7.212140370833e-04      -2.396503799748e-06 
   67       1.774650966758e+03       3.426641738494e-01       0.000000000000e+00      -5.222146736490e+00       1.662940961717e-07       7.100116950389e-04      -2.367569257456e-06 
   68       1.798687404983e+03       3.574773356198e-01       0.000000000000e+00      -5.690612820292e+00       1.657028943237e-07       6.990554501501e-04      -2.335170464247e-06 
   69       1.822973946962e+03       3.725663499750e-01       0.000000000000e+00      -6.173451487734e+00       1.650867982818e-07       6.883717483269e-04      -2.300687920094e-06 
   70       1.847521828318e+03       3.879249786685e-01       0.000000000000e+00      -6.670461175191e+00       1.644603811627e-07       6.779984870512e-04      -2.264845357427e-06 
   71       1.872339052747e+03       4.035466756067e-01       0.000000000000e+00      -7.181418609349e+00       1.638346039023e-07       6.679558504290e-04      -2.228458912614e-06 
   72       1.897430175570e+03       4.194245886275e-01       0.000000000000e+00      -7.706078594514e+00       1.632159703750e-07       6.582441567175e-04      -2.192441869774e-06 
   73       1.922796087292e+03       4.355515612792e-01       0.000000000000e+00      -8.244173799934e+00       1.626056176837e-07       6.488416299228e-04      -2.157809501657e-06 
   74       1.948433797158e+03       4.519201345988e-01       0.000000000000e+00      -8.795414547113e+00       1.619983397486e-07       6.397020954695e-04      -2.125684007607e-06 
   75       1.974336216711e+03       4.685225488908e-01       0.000000000000e+00      -9.359488597130e+00       1.613815423185e-07       6.307525999410e-04      -2.097299548593e-06 
   76       2.000495944037e+03       4.853501628476e-01       0.000000000000e+00      -9.936073917307e+00       1.607408630761e-07       6.219184588180e-04      -2.073768992645e-06 
   77       2.026917891637e+03       5.023915846891e-01       0.000000000000e+00      -1.052488013909e+01       1.600820638445e-07       6.132119784851e-04      -2.055298210876e-06 
   78       2.053608578776e+03       5.196342018752e-01       0.000000000000e+00      -1.112561430892e+01       1.594149730703e-07       6.046634068617e-04      -2.041767275208e-06 
   79       2.080572202842e+03       5.370647235266e-01       0.000000000000e+00      -1.173796863221e+01       1.587469621646e-07       5.962945830974e-04      -2.032941006523e-06 
   80       2.107810504948e+03       5.546691702549e-01       0.000000000000e+00      -1.236162052674e+01       1.580824469330e-07       5.881179581456e-04      -2.028459063011e-06 
   81       2.135322635518e+03       5.724328639936e-01       0.000000000000e+00      -1.299623267620e+01       1.574223549205e-07       5.801355836454e-04      -2.027825742203e-06 
   82       2.163105019888e+03       5.903404178292e-01       0.000000000000e+00      -1.364145308362e+01       1.567635577875e-07       5.723380691085e-04      -2.030399496656e-06 
   83       2.191151223893e+03       6.083757258312e-01       0.000000000000e+00      -1.429691512482e+01       1.560982678332e-07       5.647035074140e-04      -2.035382163326e-06 
   84       2.219454683627e+03       6.265225848682e-01       0.000000000000e+00      -1.496223737931e+01       1.554178169773e-07       5.572082915367e-04      -2.041973886146e-06 
   85       2.248017709067e+03       6.447667007698e-01       0.000000000000e+00      -1.563702297349e+01       1.547269400550e-07       5.498651721848e-04      -2.049907415294e-06 
   86       2.276843733568e+03       6.630939976448e-01       0.000000000000e+00      -1.632086022604e+01       1.540329874211e-07       5.426925899676e-04      -2.059025831284e-06 
   87       2.305934497418e+03       6.814900159129e-01       0.000000000000e+00      -1.701332290990e+01       1.533416208223e-07       5.357029933318e-04      -2.069124725583e-06 
   88       2.335289961573e+03       6.999399127569e-01       0.000000000000e+00      -1.771397030199e+01       1.526565061359e-07       5.289022352130e-04      -2.079948763351e-06 
   89       2.364908221379e+03       7.184284625752e-01       0.000000000000e+00      -1.842234723291e+01       1.519789871119e-07       5.222889522233e-04      -2.091188157929e-06 
   90       2.394785420312e+03       7.369400574337e-01       0.000000000000e+00      -1.913798413668e+01       1.513077396720e-07       5.158539263736e-04      -2.102475057078e-06 
   91       2.424915663706e+03       7.554587075186e-01       0.000000000000e+00      -1.986039710048e+01       1.506384063186e-07       5.095794293322e-04      -2.113379840966e-06 
   92       2.455290932481e+03       7.739680415887e-01       0.000000000000e+00      -2.058908791437e+01       1.499632102077e-07       5.034385492177e-04      -2.123407331908e-06 
   93       2.485903341417e+03       7.924515389083e-01       0.000000000000e+00      -2.132355016048e+01       1.492741913696e-07       4.974048116145e-04      -2.132113685237e-06 
   94       2.516752489848e+03       8.108932639661e-01       0.000000000000e+00      -2.206328842023e+01       1.485749745198e-07       4.914850818295e-04      -2.139496063943e-06 
   95       2.547839062156e+03       8.292772436088e-01       0.000000000000e+00      -2.280780206128e+01       1.478717457565e-07       4.856927792084e-04      -2.145683370689e-06 
   96       2.579162528373e+03       8.475872489876e-01       0.000000000000e+00      -2.355657958625e+01       1.471697527617e-07       4.800379037931e-04      -2.150824000499e-06 
   97       2.610721090099e+03       8.658067991875e-01       0.000000000000e+00      -2.430909876543e+01       1.464731366986e-07       4.745267186057e-04      -2.155086795422e-06 
   98       2.642511626417e+03       8.839191648578e-01       0.000000000000e+00      -2.506482676935e+01       1.457847545132e-07       4.691614235516e-04      -2.158662017343e-06 
   99       2.674529639802e+03       9.019073718416e-01       0.000000000000e+00      -2.582322030144e+01       1.451059914323e-07       4.639398209406e-04      -2.161762338913e-06 
  100       2.706769202042e+03       9.197542048055e-01       0.000000000000e+00      -2.658372573063e+01       1.444365634531e-07       4.588549726284e-04      -2.164623852622e-06 
  101       2.739222900146e+03       9.374422108701e-01       0.000000000000e+00      -2.734577922402e+01       1.437743096176e-07       4.538948487748e-04      -2.167507098002e-06 
  102       2.771881782263e+03       9.549537032390e-01       0.000000000000e+00      -2.810880687950e+01       1.431149738646e-07       4.490419682230e-04      -2.170698106962e-06 
  103       2.804735303592e+03       9.722707648294e-01       0.000000000000e+00      -2.887222485832e+01       1.424519762541e-07       4.442730304954e-04      -2.174509467255e-06 
  104       2.837773222778e+03       9.893756779898e-01       0.000000000000e+00      -2.963544618258e+01       1.417788760887e-07       4.395659069599e-04      -2.179202106353e-06 
  105       2.870991699324e+03       1.006252271947e+00       0.000000000000e+00      -3.039790188732e+01       1.410980690633e-07       4.349230670643e-04      -2.184730110801e-06 
  106       2.904387922850e+03       1.022884764996e+00       0.000000000000e+00      -3.115902298630e+01       1.404139682183e-07       4.303521825029e-04      -2.190946372068e-06 
  107       2.937958203914e+03       1.039257362874e+00       0.000000000000e+00      -3.191823426578e+01       1.397304140009e-07       4.258590206587e-04      -2.197675889508e-06 
